Time1=100ms:Average1=30:Objective=5X:Aperture=1: (10/18/2018 8:52:35 AM)
10/18/2018 8:52:35 AM
Reflectance
5X
Ap#: 1
Avg1: 30.000000
Avg2: 0.000000
Int.Time1:100.000000
Int.Time2:0.000000
419.32265625,12.99989227
419.75665700,12.91378955
420.19064491,12.84787461
420.62461995,12.78786875
421.05858210,12.71225123
421.49253135,12.64713150
421.92646768,12.58899982
422.36039106,12.53766698
422.79430148,12.49669312
423.22819892,12.45749905
423.66208336,12.41479671
424.09595478,12.38246510
424.52981316,12.34553492
424.96365849,12.31143092
425.39749074,12.29368579
425.83130989,12.26576745
426.26511593,12.23239205
426.69890883,12.20707156
427.13268858,12.17995795
427.56645516,12.14133941
428.00020855,12.10024265
428.43394873,12.04305936
428.86767568,11.99913160
429.30138939,11.94713940
429.73508982,11.90345719
430.16877697,11.84806995
430.60245081,11.80551549
431.03611133,11.76395366
431.46975851,11.74402051
431.90339232,11.71357003
432.33701276,11.69656682
432.77061979,11.67202615
433.20421340,11.65548164
433.63779357,11.63823791
434.07136029,11.62062019
434.50491352,11.60821289
434.93845327,11.59595979
435.37197949,11.57437215
435.80549219,11.56040452
436.23899132,11.54430113
436.67247689,11.52963354
437.10594887,11.51585567
437.53940723,11.50261046
437.97285197,11.47778674
438.40628306,11.46157077
438.83970048,11.44846835
439.27310421,11.44251151
439.70649424,11.42774598
440.13987054,11.41257191
440.57323310,11.39193740
441.00658189,11.37893984
441.43991690,11.37256283
441.87323811,11.37133861
442.30654551,11.37198155
442.73983906,11.38030384
443.17311875,11.38667209
443.60638457,11.39859337
444.03963649,11.39706027
444.47287449,11.39818861
444.90609856,11.39008651
445.33930868,11.38644477
445.77250482,11.37745056
446.20568697,11.36791494
446.63885511,11.35842830
447.07200922,11.34188704
447.50514928,11.32513476
447.93827527,11.31674738
448.37138718,11.30784437
448.80448497,11.30576845
449.23756865,11.29201660
449.67063818,11.27826096
450.10369354,11.26436993
450.53673472,11.25453977
450.96976170,11.24625269
451.40277446,11.24242295
451.83577298,11.23579189
452.26875725,11.22164466
452.70172723,11.21899474
453.13468291,11.22022543
453.56762428,11.21802460
454.00055132,11.22749559
454.43346400,11.23640773
454.86636230,11.24016107
455.29924622,11.24139809
455.73211572,11.24633260
456.16497079,11.25451669
456.59781142,11.26312148
457.03063757,11.26661549
457.46344923,11.27424575
457.89624639,11.26924946
458.32902903,11.27081263
458.76179711,11.27206456
459.19455064,11.26619655
459.62728958,11.26069020
460.06001392,11.26286446
460.49272363,11.26361577
460.92541871,11.26341789
461.35809913,11.26146244
461.79076486,11.25480501
462.22341591,11.25079527
462.65605223,11.25120250
463.08867382,11.25108129
463.52128065,11.25553800
463.95387271,11.25988113
464.38644998,11.25919456
464.81901243,11.26368572
465.25156005,11.26753592
465.68409283,11.27251941
466.11661073,11.27535218
466.54911374,11.27841766
466.98160185,11.28688524
467.41407503,11.28290083
467.84653327,11.27888448
468.27897654,11.28261052
468.71140483,11.28860385
469.14381811,11.28838263
469.57621637,11.28232377
470.00859960,11.27586515
470.44096776,11.27686063
470.87332084,11.27372543
471.30565882,11.27870469
471.73798169,11.27973718
472.17028942,11.28776438
472.60258200,11.29617000
473.03485940,11.30587475
473.46712160,11.31299980
473.89936860,11.32193922
474.33160036,11.33214191
474.76381687,11.34009323
475.19601811,11.35560542
475.62820407,11.37397839
476.06037471,11.38826073
476.49253003,11.40050082
476.92467000,11.41074179
477.35679461,11.41839462
477.78890383,11.42945194
478.22099765,11.43491408
478.65307605,11.44205176
479.08513900,11.44793021
479.51718650,11.44823757
479.94921851,11.45000334
480.38123503,11.44439355
480.81323602,11.44693304
481.24522149,11.44705973
481.67719139,11.44024098
482.10914572,11.43875861
482.54108446,11.44065298
482.97300758,11.44407968
483.40491507,11.44545637
483.83680691,11.44419126
484.26868308,11.44579028
484.70054356,11.45015085
485.13238833,11.45621834
485.56421738,11.45579976
485.99603067,11.46180114
486.42782820,11.46864474
486.85960995,11.47633925
487.29137589,11.48130943
487.72312601,11.49213339
488.15486029,11.50096685
488.58657870,11.51073355
489.01828124,11.51729517
489.44996788,11.52317465
489.88163860,11.53283866
490.31329338,11.54744654
490.74493220,11.55894358
491.17655505,11.56756098
491.60816190,11.58067132
492.03975274,11.58920997
492.47132755,11.60083638
492.90288631,11.61333968
493.33442899,11.62708812
493.76595559,11.63936281
494.19746607,11.64660592
494.62896043,11.65856479
495.06043864,11.67690572
495.49190069,11.68947565
495.92334655,11.70124848
496.35477620,11.71702087
496.78618963,11.72896413
497.21758682,11.74426569
497.64896774,11.75764704
498.08033239,11.77621282
498.51168074,11.78931787
498.94301276,11.80093782
499.37432845,11.81133710
499.80562778,11.82156344
500.23691074,11.83223990
500.66817730,11.84410987
501.09942745,11.84915078
501.53066116,11.85899389
501.96187842,11.86716305
502.39307921,11.87261945
502.82426351,11.87824200
503.25543130,11.88442586
503.68658256,11.88816252
504.11771727,11.89597941
504.54883542,11.90018849
504.97993698,11.90917799
505.41102193,11.91578659
505.84209026,11.92384245
506.27314195,11.92946453
506.70417698,11.93810312
507.13519532,11.94791885
507.56619696,11.95923844
507.99718189,11.96984989
508.42815007,11.97883306
508.85910150,11.98574375
509.29003615,11.99376839
509.72095401,12.00001747
510.15185505,12.00812255
510.58273926,12.01760805
511.01360661,12.02951805
511.44445709,12.03732438
511.87529069,12.04912004
512.30610737,12.06158088
512.73690712,12.07422990
513.16768992,12.08828928
513.59845576,12.09796327
514.02920461,12.11108040
514.45993645,12.12448864
514.89065127,12.13474147
515.32134905,12.14012592
515.75202976,12.14787260
516.18269339,12.15756393
516.61333992,12.16926438
517.04396933,12.17731867
517.47458160,12.18339713
517.90517671,12.19293607
518.33575465,12.19631856
518.76631539,12.20295642
519.19685891,12.21092100
519.62738520,12.22106884
520.05789424,12.22643570
520.48838600,12.23307014
520.91886048,12.23880940
521.34931764,12.24676450
521.77975747,12.25396907
522.21017995,12.26438796
522.64058507,12.26977433
523.07097279,12.27697084
523.50134312,12.28615987
523.93169601,12.29328053
524.36203147,12.30128903
524.79234945,12.30849265
525.22264996,12.31427784
525.65293297,12.32358729
526.08319845,12.32817258
526.51344640,12.33288018
526.94367678,12.33800315
527.37388959,12.34577267
527.80408480,12.34756709
528.23426240,12.35636303
528.66442236,12.36703338
529.09456467,12.37666329
529.52468930,12.38948077
529.95479624,12.39907366
530.38488547,12.41018246
530.81495697,12.41867037
531.24501072,12.42750592
531.67504671,12.43678702
532.10506490,12.44472805
532.53506529,12.44961084
532.96504785,12.45455488
533.39501257,12.45811498
533.82495942,12.46155111
534.25488839,12.46251051
534.68479946,12.45882125
535.11469261,12.45329906
535.54456782,12.44717204
535.97442507,12.44473333
536.40426434,12.43713693
536.83408561,12.42813551
537.26388887,12.41626050
537.69367409,12.40270665
538.12344125,12.38929237
538.55319035,12.37545081
538.98292135,12.36098899
539.41263423,12.35093537
539.84232899,12.34188551
540.27200560,12.33422633
540.70166404,12.32279016
541.13130429,12.31903048
541.56092633,12.31145734
541.99053015,12.30390867
542.42011572,12.29914842
542.84968303,12.29001662
543.27923205,12.28251600
543.70876277,12.27830736
544.13827517,12.27694336
544.56776923,12.27332587
544.99724493,12.27045393
545.42670225,12.27041918
545.85614117,12.26976980
546.28556168,12.26970843
546.71496375,12.27382398
547.14434736,12.27743009
547.57371250,12.28501135
548.00305915,12.29550777
548.43238728,12.30387065
548.86169688,12.31666619
549.29098794,12.32482337
549.72026042,12.33569329
550.14951431,12.34795328
550.57874960,12.36210808
551.00796626,12.37691509
551.43716427,12.39143318
551.86634362,12.40612547
552.29550429,12.41514212
552.72464625,12.42363765
553.15376949,12.42940688
553.58287399,12.43613144
554.01195973,12.43845125
554.44102669,12.44247988
554.87007485,12.44517999
555.29910419,12.44994315
555.72811470,12.45082202
556.15710635,12.45260085
556.58607912,12.45444779
557.01503300,12.45063263
557.44396797,12.44901217
557.87288401,12.44946863
558.30178110,12.44840606
558.73065921,12.44691004
559.15951834,12.44523651
559.58835846,12.44156933
560.01717955,12.43792843
560.44598160,12.43338311
560.87476458,12.42878384
561.30352847,12.42401613
561.73227326,12.42339008
562.16099893,12.41616418
562.58970546,12.41198067
563.01839282,12.40746894
563.44706101,12.40235255
563.87571000,12.39818616
564.30433977,12.39178975
564.73295030,12.38624603
565.16154157,12.37995360
565.59011358,12.37691582
566.01866628,12.37270048
566.44719967,12.36974474
566.87571373,12.36447288
567.30420844,12.36406150
567.73268378,12.36423297
568.16113973,12.36223432
568.58957627,12.35746580
569.01799338,12.35655453
569.44639105,12.35512344
569.87476924,12.35137478
570.30312796,12.34895719
570.73146717,12.34589980
571.15978685,12.34471028
571.58808700,12.34031174
572.01636758,12.33644763
572.44462858,12.33074574
572.87286998,12.32830651
573.30109177,12.32250199
573.72929391,12.31866689
574.15747640,12.31573431
574.58563922,12.31113951
575.01378234,12.30535266
575.44190574,12.30112127
575.87000941,12.29668940
576.29809333,12.29344125
576.72615748,12.29046249
577.15420184,12.28615477
577.58222639,12.28311910
578.01023111,12.27967316
578.43821598,12.27748122
578.86618099,12.27587069
579.29412611,12.27364869
579.72205133,12.26947846
580.14995662,12.26998687
580.57784197,12.26644509
581.00570736,12.25851574
581.43355276,12.25201647
581.86137817,12.24711359
582.28918356,12.24136683
582.71696890,12.23501507
583.14473420,12.22716389
583.57247941,12.22248831
584.00020453,12.21545022
584.42790954,12.20340895
584.85559441,12.19590542
585.28325913,12.18567961
585.71090368,12.17921927
586.13852803,12.17218505
586.56613218,12.16377829
586.99371610,12.15542356
587.42127977,12.14754221
587.84882317,12.13945727
588.27634629,12.13179928
588.70384910,12.12204608
589.13133159,12.11294470
589.55879373,12.10553714
589.98623551,12.09358299
590.41365691,12.08347120
590.84105791,12.06989618
591.26843849,12.05593540
591.69579863,12.04395689
592.12313831,12.03067994
592.55045752,12.01968917
592.97775623,12.00987517
593.40503442,11.99746854
593.83229208,11.98765457
594.25952919,11.97875621
594.68674573,11.97123800
595.11394167,11.96189262
595.54111700,11.95155951
595.96827171,11.94411286
596.39540576,11.93664869
596.82251915,11.92649591
597.24961185,11.91776746
597.67668385,11.91263678
598.10373512,11.90718011
598.53076564,11.90745050
598.95777541,11.90321807
599.38476439,11.89853228
599.81173257,11.89794751
600.23867993,11.89753430
600.66560645,11.89453721
601.09251211,11.89050277
601.51939690,11.88764948
601.94626078,11.88572232
602.37310376,11.88189950
602.79992580,11.87735920
603.22672688,11.87518697
603.65350699,11.87009063
604.08026611,11.86669965
604.50700422,11.86146326
604.93372130,11.85371977
605.36041733,11.84695232
605.78709229,11.84235399
606.21374616,11.83954028
606.64037893,11.83370114
607.06699057,11.82935865
607.49358107,11.82688233
607.92015040,11.82056456
608.34669856,11.81586437
608.77322551,11.81331621
609.19973124,11.80848462
609.62621572,11.80612778
610.05267896,11.80135281
610.47912091,11.79683909
610.90554156,11.78934831
611.33194090,11.78337576
611.75831891,11.77369347
612.18467556,11.76757134
612.61101083,11.76098405
613.03732472,11.75343737
613.46361719,11.74487940
613.88988823,11.73717198
614.31613782,11.73221838
614.74236595,11.72537407
615.16857258,11.72201620
615.59475771,11.72014415
616.02092131,11.71400181
616.44706337,11.70991392
616.87318386,11.70920200
617.29928278,11.71006354
617.72536008,11.71001770
618.15141577,11.71306261
618.57744982,11.71979562
619.00346220,11.72151136
619.42945291,11.72025583
619.85542192,11.72381296
620.28136922,11.72166242
620.70729478,11.71931469
621.13319858,11.71635402
621.55908061,11.71418550
621.98494085,11.71006114
622.41077927,11.70795479
622.83659587,11.70460188
623.26239061,11.70527575
623.68816348,11.70657611
624.11391447,11.71142066
624.53964355,11.71300447
624.96535070,11.71385776
625.39103591,11.71278348
625.81669915,11.71302410
626.24234041,11.71202438
626.66795966,11.71042908
627.09355689,11.71115379
627.51913209,11.71035277
627.94468522,11.71125309
628.37021627,11.71113053
628.79572523,11.70999936
629.22121207,11.71430361
629.64667677,11.71865078
630.07211931,11.72137864
630.49753969,11.72517044
630.92293786,11.73059311
631.34831383,11.73514436
631.77366756,11.73718198
632.19899905,11.73906913
632.62430826,11.74414762
633.04959519,11.74870465
633.47485980,11.75879770
633.90010209,11.76451648
634.32532203,11.77329630
634.75051961,11.78318011
635.17569481,11.79140933
635.60084760,11.80021785
636.02597797,11.80842388
636.45108589,11.81549169
636.87617136,11.82175175
637.30123435,11.82642838
637.72627483,11.83693182
638.15129281,11.84538600
638.57628824,11.85584727
639.00126112,11.86554169
639.42621142,11.87627836
639.85113913,11.88915205
640.27604422,11.90047751
640.70092669,11.91438354
641.12578650,11.92658525
641.55062364,11.93939782
641.97543809,11.95362116
642.40022983,11.96461587
642.82499885,11.97571265
643.24974512,11.98963194
643.67446862,12.00004347
644.09916934,12.00928048
644.52384726,12.02081677
644.94850235,12.02876124
645.37313460,12.04087239
645.79774399,12.05295852
646.22233050,12.06173136
646.64689411,12.06950357
647.07143480,12.07906707
647.49595255,12.08876853
647.92044735,12.09697962
648.34491917,12.10582425
648.76936800,12.11350749
649.19379381,12.12256128
649.61819659,12.13269112
650.04257632,12.14290280
650.46693298,12.15493787
650.89126655,12.16323814
651.31557701,12.17703128
651.73986434,12.19005973
652.16412852,12.20225272
652.58836954,12.21304642
653.01258737,12.22280580
653.43678200,12.23503970
653.86095340,12.24577135
654.28510156,12.25709028
654.70922646,12.26713197
655.13332808,12.27975130
655.55740640,12.29382373
655.98146140,12.30652815
656.40549307,12.31557544
656.82950137,12.32784418
657.25348630,12.34130744
657.67744784,12.35214419
658.10138596,12.36830297
658.52530064,12.38579304
658.94919188,12.40125981
659.37305964,12.42520419
659.79690391,12.44505341
660.22072468,12.46504951
660.64452191,12.48664852
661.06829560,12.50970324
661.49204572,12.53279883
661.91577225,12.55587578
662.33947518,12.58027886
662.76315449,12.60455992
663.18681015,12.63083304
663.61044215,12.65529384
664.03405047,12.68214998
664.45763509,12.70505149
664.88119598,12.72902104
665.30473314,12.75384686
665.72824655,12.78213456
666.15173617,12.80909076
666.57520200,12.83270225
666.99864402,12.85779960
667.42206220,12.88095121
667.84545653,12.90565655
668.26882699,12.92715483
668.69217355,12.94836833
669.11549621,12.97172164
669.53879494,12.99614622
669.96206971,13.02204116
670.38532052,13.05127679
670.80854735,13.07727951
671.23175017,13.10337674
671.65492896,13.12618359
672.07808371,13.14661467
672.50121440,13.16106941
672.92432101,13.18083606
673.34740351,13.20098485
673.77046190,13.22136098
674.19349615,13.23841360
674.61650623,13.25950421
675.03949215,13.28075412
675.46245386,13.29848340
675.88539136,13.31784929
676.30830463,13.33432670
676.73119364,13.35180493
677.15405838,13.37136821
677.57689882,13.39170930
677.99971496,13.41266502
678.42250677,13.43539790
678.84527423,13.45463133
679.26801732,13.47671625
679.69073602,13.49925164
680.11343032,13.52324300
680.53610019,13.54870244
680.95874562,13.57440154
681.38136658,13.60378744
681.80396307,13.62973548
682.22653505,13.65915225
682.64908251,13.68931160
683.07160543,13.71850158
683.49410379,13.74728199
683.91657758,13.78106788
684.33902677,13.81052743
684.76145134,13.83887719
685.18385128,13.87448340
685.60622656,13.90827999
686.02857717,13.94315533
686.45090309,13.98093234
686.87320430,14.01636209
687.29548077,14.05631538
687.71773250,14.09363382
688.13995946,14.13238325
688.56216163,14.17255806
688.98433899,14.21605653
689.40649153,14.26350103
689.82861923,14.31205211
690.25072206,14.35712468
690.67280001,14.40496737
691.09485305,14.45042710
691.51688118,14.49461887
691.93888436,14.53958188
692.36086259,14.58596502
692.78281583,14.63422666
693.20474408,14.67717278
693.62664732,14.72453939
694.04852552,14.77082264
694.47037866,14.81622968
694.89220673,14.86646422
695.31400971,14.91213704
695.73578757,14.95687886
696.15754031,15.00244919
696.57926789,15.04441666
697.00097031,15.08281540
697.42264753,15.12340098
697.84429955,15.16949810
698.26592635,15.20650908
698.68752790,15.24890004
699.10910418,15.29152429
699.53065518,15.33349733
699.95218088,15.37693761
700.37368126,15.41979219
700.79515630,15.46013204
701.21660597,15.49830886
701.63803027,15.53898099
702.05942917,15.57344407
702.48080265,15.60767899
702.90215070,15.63749995
703.32347329,15.67055683
703.74477041,15.69819336
704.16604204,15.73026387
704.58728815,15.76408034
705.00850873,15.79904883
705.42970376,15.83245858
705.85087322,15.86591838
706.27201710,15.90607154
706.69313536,15.94647863
707.11422800,15.98793142
707.53529499,16.02770962
707.95633632,16.06728794
708.37735196,16.10687682
708.79834190,16.15149854
709.21930612,16.19800622
709.64024460,16.24587353
710.06115731,16.29811800
710.48204425,16.35061513
710.90290539,16.40101466
711.32374071,16.45714793
711.74455020,16.51351170
712.16533383,16.56820311
712.58609158,16.62159282
713.00682344,16.67701081
713.42752939,16.73558949
713.84820941,16.79360782
714.26886347,16.85518877
714.68949157,16.91397753
715.11009368,16.97516859
715.53066977,17.03709611
715.95121984,17.10300887
716.37174387,17.16684218
716.79224183,17.23573827
717.21271370,17.30182750
717.63315947,17.36669179
718.05357912,17.42976025
718.47397263,17.49123181
718.89433997,17.55100530
719.31468114,17.60833469
719.73499610,17.66175742
720.15528485,17.71573121
720.57554736,17.77341640
720.99578362,17.83220768
721.41599360,17.89338164
721.83617729,17.95306787
722.25633466,18.01177524
722.67646570,18.06839705
723.09657039,18.12322400
723.51664871,18.17927538
723.93670063,18.23345350
724.35672615,18.28541976
724.77672524,18.33583094
725.19669789,18.39004789
725.61664407,18.44538871
726.03656376,18.49692265
726.45645695,18.53994104
726.87632362,18.59112577
727.29616374,18.64038191
727.71597730,18.69408406
728.13576429,18.74236409
728.55552467,18.78338598
728.97525843,18.82974490
729.39496556,18.87249081
729.81464603,18.91173367
730.23429983,18.95670048
730.65392692,19.00130495
731.07352731,19.05220395
731.49310096,19.10321815
731.91264786,19.15685763
732.33216799,19.21285685
732.75166133,19.26927727
733.17112786,19.32496204
733.59056756,19.38045580
734.00998042,19.43430204
734.42936640,19.48739309
734.84872550,19.53915089
735.26805770,19.59239188
735.68736298,19.65361127
736.10664131,19.71532157
736.52589267,19.77549918
736.94511706,19.83479662
737.36431445,19.89790489
737.78348482,19.96012751
738.20262815,20.02296818
738.62174442,20.08359463
739.04083362,20.15501727
739.45989572,20.22704532
739.87893071,20.29836602
740.29793856,20.37635032
740.71691926,20.44996218
741.13587279,20.53192846
741.55479913,20.61820849
741.97369826,20.70066658
742.39257016,20.78240587
742.81141481,20.87319572
743.23023219,20.95805550
743.64902229,21.04377210
744.06778508,21.12156102
